time (s)	magX	magY	magZ
3816.823776	80.046173	271.181763	-288.919373
3816.827111	81.624191	271.649323	-295.699005
3816.830443	83.260666	272.526001	-302.712433
3816.833777	85.014023	272.292236	-311.128571
3816.837120	86.475159	272.058441	-319.369385
3816.840443	88.170074	272.350647	-327.902405
3816.843776	89.514320	272.467560	-336.844543
3816.847121	91.384567	271.240204	-344.442444
3816.850438	92.728813	270.772644	-353.092346
3816.853773	94.131500	269.779083	-361.683838
3816.857104	96.001755	269.194611	-370.918182
3816.860439	97.462891	268.025726	-380.269440
3816.863776	98.865578	266.447662	-389.328461
3816.867104	100.560486	264.343658	-398.036835
3816.870440	101.670952	262.531830	-408.206329
3816.873771	102.898300	260.720062	-417.791351
3816.877103	104.593216	257.680878	-426.967285
3816.880440	105.995911	254.758621	-436.318542
3816.883772	107.281708	251.544144	-445.319122
3816.887103	107.807709	247.219177	-455.663940
3816.890435	109.268845	243.770905	-465.132080
3816.893770	110.671539	239.387482	-475.944519
3816.897102	111.898888	234.536530	-485.295776
3816.900433	113.126244	230.153122	-494.471680
3816.905133	115.171829	219.340744	-515.102905
3816.908425	116.282288	212.502625	-523.635864
3816.911733	117.334305	206.248978	-534.097595
3816.915058	118.035652	199.177094	-543.215088
3816.917997	118.678551	191.520752	-551.689636
3816.921356	119.613678	184.624207	-559.988892
3816.924697	120.899475	177.026306	-568.229736
3816.927944	121.659256	168.727066	-577.230286
3816.931275	122.302162	160.369385	-585.587952
3816.934635	122.769730	151.544128	-593.302734
3816.937981	123.704849	141.433075	-600.608459
3816.941349	123.821747	132.900070	-608.147888
3816.944613	124.230858	122.672119	-614.518433
3816.947939	124.406197	112.736420	-621.882507
3816.951300	124.815308	102.566925	-627.201050
3816.954224	124.347748	92.105209	-632.344238
3816.957541	124.464638	81.643486	-638.656372
3816.960870	123.997070	70.597305	-643.682678
3816.964185	124.464638	60.310928	-647.306274
3816.967521	123.704849	49.790764	-650.579224
3816.970849	122.828171	38.393921	-654.787292
3816.974204	122.535950	27.873758	-657.008179
3816.977547	121.834602	15.600233	-659.579773
3816.980850	120.431908	3.852718	-662.502014
3816.984177	120.198128	-7.018118	-664.080078
3816.987519	118.737000	-18.356514	-665.132080
3816.990879	117.451202	-29.753361	-665.541199
3816.994201	115.697838	-40.624195	-664.898315
3816.997520	114.587372	-51.787258	-663.554077
3817.000427	112.541794	-63.242550	-662.443604
3817.003760	110.905319	-74.054947	-661.274719
3817.007110	109.035065	-84.165985	-659.112183
3817.010421	107.457047	-95.095261	-655.780823
3817.013756	105.411453	-105.907669	-652.449463
3817.017087	102.722969	-116.018707	-649.819397
3817.020425	100.268265	-126.012848	-644.383972
3817.023754	98.164230	-135.831665	-639.357727
3817.027091	95.709526	-145.124481	-633.454712
3817.030423	94.014610	-154.417297	-628.311523
3817.033751	90.975449	-163.359436	-622.057861
3817.037091	88.812973	-171.892456	-614.752197
3817.040425	86.416718	-179.899475	-607.914124
3817.043752	84.195793	-188.257156	-600.608459
3817.047084	81.974869	-195.913483	-592.601440
3817.050421	79.520164	-203.336060	-583.834595
3817.053754	77.533020	-210.232620	-575.827576
3817.057087	74.961426	-216.836929	-566.943909
3817.060435	72.857391	-221.980118	-557.066589
3817.063751	69.292229	-228.000000	-547.247803
3817.067084	67.305084	-233.552322	-538.305664
3817.070416	64.967270	-238.403290	-528.019287
3817.073750	62.804790	-243.429565	-517.616028
3817.077085	60.876095	-248.105194	-507.797241
3817.080416	59.122734	-251.962585	-498.095276
3817.083747	56.551140	-255.293976	-487.984222
3817.087083	54.037987	-258.566895	-477.347168
3817.090417	52.109291	-261.489166	-467.177673
3817.093749	50.355930	-264.586792	-456.774414
3817.097083	48.836353	-267.099945	-446.312714
3817.100419	46.556984	-269.496216	-435.967865
3817.103746	44.862068	-271.717133	-425.739929
3817.107079	42.816483	-272.710693	-415.044434
3817.110414	40.887787	-273.938049	-405.634735
3817.113769	38.608414	-275.632965	-395.231445
3817.117080	37.205727	-275.925201	-385.120392
3817.120414	35.510811	-277.152527	-375.301575
3817.123748	33.991234	-276.918762	-365.424347
3817.127081	32.179428	-277.210968	-356.365295
3817.130409	30.601402	-277.620117	-346.195801
3817.133743	28.380478	-277.678528	-337.545898
3817.137076	27.036236	-276.626526	-327.376404
3817.140410	25.049095	-276.217407	-319.018707
3817.143746	23.412624	-275.691406	-310.193451
3817.147078	21.893047	-274.288696	-302.128021
3817.150421	20.548801	-273.879608	-293.127411
3817.153743	18.678551	-272.360016	-285.821747
3817.157076	16.866745	-271.775574	-277.054932
3817.160409	16.106953	-270.139099	-269.924622
3817.163742	14.470482	-268.093506	-261.800690
3817.167077	13.418465	-266.457031	-253.384567
3817.170406	12.600231	-265.112793	-246.254242
3817.173744	10.846870	-263.417877	-239.357681
3817.177078	10.203976	-261.196960	-232.636475
3817.180410	9.502632	-259.326691	-225.447693
3817.183740	8.041496	-257.631775	-219.077148
3817.187074	7.164810	-256.170654	-211.888367
3817.190408	6.405029	-253.540619	-205.342499
3817.193740	5.469902	-251.787262	-199.381058
3817.197073	4.651665	-249.624786	-193.887192
3817.200402	3.833435	-247.345398	-188.042664
3817.203767	3.365868	-245.007599	-182.198135
3817.207071	3.365868	-242.728241	-177.405609
3817.210404	2.372292	-240.799530	-171.502625
3817.213751	1.554062	-238.344818	-165.541214
3817.217070	1.378731	-236.240784	-160.982468
3817.220402	0.502045	-234.195206	-156.540619
3817.223738	-0.023964	-231.214478	-151.748093
3817.228409	-0.433083	-226.305084	-142.805969
3817.231665	-0.959084	-224.610168	-138.656342
3817.235023	-1.251312	-221.921692	-135.266510
3817.237961	-1.543549	-219.233185	-130.766220
3817.241268	-2.186440	-217.479828	-127.610168
3817.244648	-2.537109	-216.252472	-123.577438
3817.247906	-3.355347	-213.388657	-120.362946
3817.251245	-3.822914	-211.693741	-116.154877
3817.254599	-3.647575	-209.297501	-112.940384
3817.257937	-4.582703	-207.135010	-109.024551
3817.261312	-4.173584	-205.264771	-106.336060
3817.264575	-4.641144	-203.160721	-102.946228
3817.267910	-5.108711	-200.881348	-100.900650
3817.271264	-4.758034	-199.654007	-98.504379
3817.274625	-5.985390	-197.082397	-95.991234
3817.277510	-6.277611	-194.803024	-93.244308
3817.280815	-7.037407	-193.341904	-90.322037
3817.284150	-6.862068	-191.004089	-88.101112
3817.287487	-7.972534	-189.367615	-85.997078
3817.290817	-7.329628	-187.789581	-83.893051
3817.294166	-7.563408	-185.568665	-81.672119
3817.297490	-7.914085	-183.932190	-79.100525
3817.300813	-8.323204	-182.120392	-77.171829
3817.304151	-8.849213	-179.899475	-74.775574
3817.307485	-8.615425	-179.022797	-72.846878
3817.310837	-9.082993	-176.801865	-70.625946
3817.314145	-9.082993	-175.691406	-69.632378
3817.317482	-9.141441	-173.762711	-68.112801
3817.320394	-9.316772	-172.067795	-65.833435
3817.323727	-9.141441	-170.665100	-64.196960
3817.327057	-9.316772	-169.203979	-63.028053
3817.330394	-9.667442	-168.093506	-60.748688
3817.333727	-9.550552	-166.690811	-59.579781
3817.337060	-9.959671	-165.288132	-58.001755
3817.340391	-9.433662	-163.826996	-57.767971
3817.343726	-9.316772	-162.248978	-56.365284
3817.347053	-10.544128	-161.372299	-54.611923
3817.350408	-10.485687	-160.203384	-53.852135
3817.353725	-10.602577	-158.625351	-52.507893
3817.357056	-10.719467	-157.690231	-49.468731
3817.360388	-10.544128	-156.287537	-49.410286
3817.363721	-10.602577	-154.943298	-48.241379
3817.367057	-10.018112	-154.358856	-47.189365
3817.370387	-11.128578	-152.897720	-45.669785
3817.373740	-11.245468	-151.319702	-45.026886
3817.377053	-10.894798	-151.202805	-44.442432
3817.380383	-11.128578	-150.092346	-43.624199
3817.383720	-10.953247	-149.157211	-42.455292
3817.387053	-11.128578	-148.572754	-41.169495
3817.390385	-11.303917	-147.228516	-40.117477
3817.393720	-11.303917	-146.351837	-40.059029
3817.397049	-11.245468	-146.001160	-39.065460
3817.400385	-11.888374	-145.767380	-38.364117
3817.403724	-12.239044	-144.130920	-37.428989
3817.407053	-12.180595	-143.838684	-36.902981
3817.410386	-12.355934	-142.435989	-36.786091
3817.413723	-12.414375	-141.617767	-35.675629
3817.417049	-12.180595	-141.851547	-35.850967
3817.420384	-12.648155	-141.676208	-34.974285
3817.423715	-13.057281	-140.624191	-35.208069
3817.427057	-13.232613	-140.624191	-34.448277
3817.430394	-13.291061	-139.689072	-34.448277
3817.433713	-13.115723	-138.812393	-34.448277
3817.437048	-13.407951	-138.870834	-34.156052
3817.440384	-13.817062	-138.753937	-33.454704
3817.443715	-13.583282	-138.227936	-33.337814
3817.447060	-13.992401	-137.585037	-32.227356
3817.450379	-13.933952	-136.766800	-32.578026
3817.453711	-14.050850	-137.000580	-31.935127
3817.457045	-14.576859	-136.240799	-32.110462
3817.460375	-14.459969	-136.240799	-31.701345
3817.463720	-14.284630	-136.357681	-31.233782
3817.467044	-14.226189	-135.714783	-32.110462
3817.470377	-14.635300	-135.831665	-31.642900
3817.473712	-14.343079	-135.364105	-31.526009
3817.477044	-14.576859	-135.481003	-31.000002
3817.480388	-15.161308	-135.364105	-30.824665
3817.483710	-14.752190	-134.312103	-31.116892
3817.487042	-15.044418	-134.545883	-31.350674
3817.490377	-15.336647	-134.312103	-31.000002
3817.493713	-15.511986	-134.662766	-30.298656
3817.497066	-15.044418	-134.838104	-30.707775
3817.500379	-15.336647	-135.013443	-30.181767
3817.503709	-15.511986	-135.714783	-31.000002
3817.507043	-15.745766	-135.247223	-31.584454
3817.510373	-15.511986	-135.305664	-31.759790
3817.513705	-16.037987	-135.481003	-32.285797
3817.517041	-15.628876	-135.656342	-32.110462
3817.520373	-16.330215	-136.123901	-31.701345
3817.523707	-16.447105	-136.123901	-31.818235
3817.527042	-16.505554	-136.182343	-32.168907
3817.530391	-16.914673	-136.708359	-32.694916
3817.533705	-16.914673	-136.649918	-32.811806
3817.537037	-17.090004	-137.877258	-33.162479
3817.540372	-17.440674	-137.526581	-33.162479
3817.543702	-17.849800	-137.994156	-34.097603
3817.548309	-18.375801	-139.513733	-34.506721
3817.551661	-18.258911	-139.513733	-35.441849
3817.555037	-18.726471	-140.624191	-34.857395
3817.557892	-18.375801	-140.507294	-35.734074
3817.561275	-19.661606	-141.267090	-36.610756
3817.564549	-19.720047	-142.260666	-36.376972
3817.567896	-19.486267	-143.020462	-37.078316
3817.571230	-20.304497	-143.488022	-37.545879
3817.574588	-20.655174	-144.247803	-38.422562
3817.577971	-20.246056	-143.955582	-38.188782
3817.581204	-20.596733	-145.708939	-39.416130
3817.584565	-20.596733	-145.299820	-39.240795
3817.587888	-21.064293	-146.877838	-40.701931
3817.591227	-21.590302	-147.462296	-40.994156
3817.594633	-21.824081	-148.222092	-41.870834
3817.597491	-21.648743	-149.274109	-43.507305
3817.600786	-21.648743	-149.858566	-44.091759
3817.604120	-22.291641	-151.027466	-44.500877
3817.607456	-22.525421	-151.553482	-45.611340
3817.610802	-22.174751	-152.722382	-46.312683
3817.614113	-22.700760	-153.657516	-46.546463
3817.617451	-23.752777	-154.358856	-47.949154
3817.620784	-23.986557	-155.586197	-48.708942
3817.624116	-24.103447	-157.222672	-50.170078
3817.627471	-24.103447	-158.566925	-52.157219
3817.630783	-23.928108	-160.320267	-53.384571
3817.634111	-24.746346	-160.787842	-54.845703
3817.637452	-25.798363	-162.073639	-55.488602
3817.640358	-26.032143	-163.593216	-57.125072
3817.643693	-25.915253	-164.762115	-59.638222
3817.647027	-26.499702	-166.106369	-61.040913
3817.650382	-27.201050	-167.509064	-61.391586
3817.653690	-27.610168	-168.794846	-63.378727
3817.657027	-27.785500	-170.255981	-64.430740
3817.660357	-28.545296	-172.418472	-66.242546
3817.663695	-28.428406	-174.230270	-68.288132
3817.667053	-29.188194	-174.697830	-69.457047
3817.670357	-29.538872	-175.925186	-70.567505
3817.673692	-30.240211	-178.379898	-73.489777
3817.677022	-30.649330	-180.016357	-75.301575
3817.680357	-31.292221	-181.185272	-77.347168
3817.683694	-32.285797	-183.406189	-79.275864
3817.687023	-32.928696	-184.750443	-81.789009
3817.690356	-32.870255	-187.088257	-84.302170
3817.693691	-33.863815	-188.783173	-86.464645
3817.697025	-34.331383	-190.478088	-88.685562
3817.700353	-35.091171	-192.231445	-91.198715
3817.703704	-36.026299	-194.569260	-93.244308
3817.707020	-36.610756	-196.556412	-96.049683
3817.710354	-36.610756	-198.718887	-98.913498
3817.713691	-38.013443	-200.822906	-101.894211
3817.717017	-38.305672	-202.634720	-104.407364
3817.720377	-39.766800	-204.972534	-107.154297
3817.723685	-39.825249	-206.550552	-111.011688
3817.727020	-40.526588	-209.414368	-114.576859
3817.730349	-41.520164	-211.343079	-118.083572
3817.733684	-42.338394	-214.148453	-120.830505
3817.737016	-42.805954	-215.901810	-124.629456
3817.740351	-43.565750	-217.947388	-128.077728
3817.743685	-44.851555	-220.285202	-131.759781
3817.747017	-45.494446	-222.681473	-136.201645
3817.750349	-45.845116	-225.369965	-139.708359
3817.753682	-46.663353	-227.064880	-144.033310
3817.757035	-47.598480	-228.993561	-148.241379
3817.760352	-48.416725	-231.389832	-153.033905
3817.763682	-49.819412	-234.253647	-157.767975
3817.767020	-50.871422	-236.533020	-163.495605
3817.770347	-52.040329	-238.753937	-167.995911
3817.773680	-52.975449	-240.741089	-173.372879
3817.777017	-54.085907	-243.312683	-179.743423
3817.780346	-55.254814	-245.884277	-185.471069
3817.783722	-56.189957	-248.222107	-190.964935
3817.787025	-57.183510	-250.150787	-196.049683
3817.790347	-58.001762	-252.663940	-203.063110
3817.793680	-59.404442	-254.943298	-209.024551
3817.797012	-59.872002	-256.871979	-215.687317
3817.800344	-62.034492	-259.560486	-221.298065
3817.803679	-63.144951	-261.196960	-227.960831
3817.807013	-64.664513	-263.593231	-235.324951
3817.810370	-65.950325	-265.638794	-242.922852
3817.813679	-67.177681	-267.801300	-249.644058
3817.817012	-68.054359	-269.554657	-257.300415
3817.820342	-70.158379	-271.191132	-264.839874
3817.823677	-71.151955	-273.061371	-272.730011
3817.827012	-72.788429	-274.756256	-281.029236
3817.830342	-74.132668	-275.340729	-288.042664
3817.833674	-75.652260	-276.509644	-296.926361
3817.837019	-77.288719	-278.613678	-304.874939
3817.840361	-79.509636	-279.548798	-314.810638
3817.843672	-80.269432	-280.542389	-324.161896
3817.847007	-81.379890	-280.776154	-333.513153
3817.850340	-82.724144	-281.594360	-342.104645
3817.853671	-84.419060	-282.412628	-352.332550
3817.857007	-85.295738	-282.120392	-361.625366
3817.860340	-86.639977	-282.412628	-371.561096
3817.865019	-89.679131	-281.886597	-391.490936
3817.868340	-90.497368	-281.068390	-401.660461
3817.871284	-91.958504	-280.133240	-413.057281
3817.874939	-92.776741	-279.607239	-423.226776
3817.877850	-94.120979	-277.912323	-433.571625
3817.881209	-94.939217	-276.626526	-444.150208
3817.884534	-96.341911	-273.996490	-453.735229
3817.887919	-98.153709	-271.950897	-464.956757
3817.891181	-98.621269	-269.203979	-475.243134
3817.894546	-100.316185	-267.041504	-486.698425
3817.897861	-100.900642	-263.476318	-497.043274
3817.901202	-101.718880	-260.261841	-507.095856
3817.904591	-103.589134	-256.521332	-517.908264
3817.907895	-104.115135	-252.137939	-528.720642
3817.911179	-104.582710	-247.929871	-539.065491
3817.914508	-105.868492	-243.488007	-548.007629
3817.917461	-106.394508	-238.461700	-557.884888
3817.920783	-107.446526	-231.740509	-567.937439
3817.924118	-108.089424	-226.246643	-576.470520
3817.927423	-109.083000	-219.759201	-585.412659
3817.930751	-109.492104	-213.447098	-593.770325
3817.934084	-110.544136	-206.608994	-602.595581
3817.937445	-110.661018	-198.835754	-610.018127
3817.940781	-111.596138	-191.237854	-618.434265
3817.944086	-111.888374	-183.406189	-625.447693
3817.947447	-112.239037	-174.522491	-632.285828
3817.950752	-112.297493	-166.223251	-638.364136
3817.954078	-112.648170	-156.696671	-644.442444
3817.956999	-113.174171	-147.286972	-651.455872
3817.960330	-112.940376	-137.292801	-656.131470
3817.963666	-112.765053	-127.415543	-660.514893
3817.966994	-111.946815	-117.655167	-664.372314
3817.970357	-112.765053	-106.550552	-668.755737
3817.973665	-111.479256	-95.679718	-671.736389
3817.976996	-110.953255	-84.575104	-673.957336
3817.980327	-109.609001	-73.938049	-675.710693
3817.983662	-109.784340	-62.015194	-676.528931
3817.986995	-108.147865	-50.326122	-677.697815
3817.990323	-106.920509	-38.461716	-678.516113
3817.993656	-105.985390	-26.831093	-678.399231
3817.996989	-104.699593	-15.492695	-677.697815
3818.000322	-102.595558	-3.745178	-676.587402
3818.003656	-101.660423	7.885447	-675.126282
3818.006992	-99.556404	19.516071	-672.437744
3818.010323	-97.919930	32.198715	-668.931030
3818.013656	-95.932793	43.654003	-665.190552
3818.016991	-94.471657	54.758621	-661.391602
3818.020320	-92.367622	65.454117	-657.241943
3818.023652	-90.731148	77.435425	-652.975464
3818.026986	-89.094688	88.247803	-646.780212
3818.030339	-86.815315	99.060196	-641.695557
3818.033658	-84.652840	109.521912	-635.617187
3818.036991	-83.483940	120.334305	-628.662170
3818.040318	-81.087669	130.562241	-622.992981
3818.043654	-79.392754	140.673294	-614.985962
3818.046986	-77.464058	149.966110	-607.329651
3818.050319	-74.950905	158.732910	-598.621338
3818.053652	-73.022209	167.908829	-590.906494
3818.056981	-71.151955	176.967850	-581.847473
3818.060315	-68.989479	185.267105	-573.255981
3818.063652	-66.534782	192.748108	-563.963196
3818.066992	-64.722969	200.229111	-555.722412
3818.070318	-63.261833	208.119232	-546.020447
3818.073652	-61.099358	215.015793	-536.435425
3818.076987	-59.930458	220.860321	-526.908813
3818.080328	-57.241966	226.880188	-517.382202
3818.083671	-55.897728	232.958496	-507.271179
3818.086986	-54.144356	238.335480	-497.686188
3818.090317	-52.566338	243.478668	-487.341339
3818.093649	-50.053192	248.388077	-478.165436
3818.097005	-48.124489	252.303925	-467.586792
3818.100313	-46.604904	256.511993	-457.592651
3818.103646	-44.442429	260.310913	-447.306274
3818.106979	-43.507301	263.583862	-437.838104
3818.110313	-41.637047	266.213898	-428.720642
3818.113679	-39.123901	268.610168	-418.901825
3818.116976	-38.130333	271.766235	-409.609009
3818.120324	-35.734070	273.227356	-399.439514
3818.123646	-34.740509	274.922272	-390.205170
3818.126975	-33.513153	276.208069	-380.853912
3818.130316	-31.292221	278.019867	-370.742859
3818.133645	-29.305092	279.480988	-362.852722
3818.137004	-28.019287	280.065460	-353.559906
3818.140311	-26.207481	280.649933	-344.208649
3818.143647	-24.629456	281.000580	-336.610748
3818.146973	-23.226768	280.591461	-329.129761
3818.150314	-21.414963	280.299255	-319.720062
3818.153646	-20.012276	280.416138	-311.245483
3818.156977	-18.960258	280.065460	-302.712433
3818.160312	-17.557564	279.422577	-295.289917
3818.163641	-16.388657	278.487427	-288.393341
3818.166977	-14.869080	278.078308	-280.795441
3818.170313	-14.050850	276.441864	-273.139099
3818.173657	-13.349503	275.097595	-266.125671
3818.176973	-11.888374	273.987152	-258.878418
3818.181642	-9.609001	270.421967	-244.793106
3818.184900	-9.258331	268.843964	-239.883698
3818.188258	-8.206314	267.499695	-232.461121
3818.191213	-7.271187	265.687897	-225.623016
3818.194558	-6.745178	263.525421	-219.661606
3818.197878	-6.102280	261.888947	-214.635300
3818.201147	-5.342491	260.486267	-208.264755
3818.204499	-4.758034	257.856201	-202.595551
3818.207837	-4.933372	255.810638	-197.452362
3818.211213	-4.758034	254.115723	-192.016937
3818.214552	-4.173584	251.544144	-186.815308
3818.217810	-3.472237	249.790756	-181.847458
3818.221161	-2.595558	247.511414	-176.879593
3818.224500	-2.069550	245.232025	-171.736404
3818.227908	-1.601990	242.894211	-166.885452
3818.231213	-0.959084	240.848633	-161.917587
3818.234064	-0.783752	238.218597	-157.767975
