time (s)	theta (A)	maj axis/z0	min axis/z0	crossing#mod 255
2694.382958	85.650124	0.647393	0.301463	101
2696.394601	86.083992	0.647268	0.302085	103
2698.407918	86.669220	0.645632	0.302026	105
2700.423705	87.230865	0.643675	0.301221	107
2702.437577	87.377151	0.642487	0.300028	109
2704.451610	87.265099	0.640863	0.299668	111
2706.466864	87.187485	0.638977	0.298956	113
2708.481161	87.028473	0.638565	0.298480	115
2710.494717	87.028091	0.638518	0.298748	117
2712.508689	87.581322	0.637257	0.297979	119
2714.522259	88.629204	0.636122	0.298180	121
2716.531596	89.577003	0.635974	0.298265	123
2718.540585	90.502220	0.633303	0.297860	125
2720.552611	91.204483	0.631422	0.297040	127
2722.564667	91.278648	0.629485	0.296200	129
2724.579228	91.139717	0.628175	0.295648	131
2726.599109	90.906891	0.627754	0.295466	133
2728.617444	90.512383	0.627918	0.293967	135
2730.633758	90.142654	0.628296	0.293252	137
2732.649156	89.972435	0.630143	0.294066	139
2734.663694	90.042397	0.630229	0.293894	141
2736.677952	90.184349	0.628962	0.293183	143
2738.691517	90.388618	0.627978	0.292509	145
2740.706843	90.687752	0.627358	0.292050	147
2742.720292	90.891663	0.627404	0.292017	149
2744.733527	91.032707	0.626415	0.291288	151
2746.746131	91.309494	0.626031	0.291074	153
2748.757819	91.868301	0.624918	0.290631	155
2750.769085	92.445160	0.624644	0.290663	157
2752.780808	93.480331	0.621813	0.290079	159
2754.792069	94.399162	0.621103	0.289984	161
2756.803786	94.906998	0.620365	0.289395	163
2758.815351	95.126282	0.618776	0.289068	165
2760.830129	95.113083	0.616659	0.288287	167
2762.847009	94.816010	0.616029	0.287350	169
2764.865160	94.521904	0.615941	0.286612	171
2766.884263	94.353828	0.616670	0.285748	173
2768.902194	94.271553	0.617517	0.285232	175
2770.916733	94.193398	0.618484	0.285535	177
2772.930301	94.146652	0.618530	0.285245	179
2774.944243	94.234840	0.617962	0.284665	181
2776.957831	94.366142	0.617145	0.283440	183
2778.970912	94.500221	0.615124	0.282479	185
2780.985145	94.742157	0.614176	0.281285	187
2782.998453	94.830711	0.613933	0.281065	189
2785.012012	95.003654	0.612830	0.280455	191
2787.026119	95.535835	0.612540	0.279921	193
2789.039874	96.214928	0.612384	0.279682	195
2791.052199	97.075134	0.611761	0.279877	197
2793.063328	98.071114	0.611163	0.279926	199
2795.073847	99.120758	0.610168	0.279677	201
2797.084131	99.892799	0.607868	0.278465	203
2799.096050	100.278709	0.606540	0.277810	205
2801.110879	100.265556	0.605849	0.276885	207
2803.126190	100.036758	0.605882	0.276312	209
2805.142556	99.764862	0.605608	0.275738	211
2807.160069	99.664589	0.605702	0.275095	213
2809.176812	99.738220	0.605352	0.274570	215
2811.193640	99.837204	0.605029	0.273846	217
2813.208514	99.923836	0.604239	0.273250	219
2815.222641	100.088707	0.604043	0.272102	221
2817.236648	100.320358	0.604745	0.272091	223
2819.249856	100.578537	0.604556	0.271159	225
2821.262864	100.888573	0.602817	0.269755	227
2823.273885	101.204941	0.602601	0.269061	229
2825.285959	101.588249	0.601988	0.268521	231
2827.296790	102.042274	0.600925	0.267610	233
2829.309177	102.527695	0.599889	0.267133	235
2831.320813	102.687088	0.599899	0.266685	237
2833.334325	102.896049	0.599308	0.266547	239
2835.348427	103.074677	0.597826	0.265789	241
2837.363711	103.088074	0.597229	0.264977	243
2839.379697	102.882622	0.597467	0.264754	245
2841.397354	102.660866	0.598371	0.264296	247
2843.414123	102.453926	0.598903	0.263206	249
2845.429881	102.239441	0.600782	0.262842	251
2847.444430	102.044403	0.601990	0.262604	253
2849.458245	102.060196	0.601132	0.261835	255
2851.472496	102.164803	0.600793	0.260904	1
2853.485927	102.261551	0.599728	0.259790	3
2855.500289	102.384010	0.599148	0.258467	5
2857.513746	102.567818	0.598202	0.257268	7
2859.527817	102.888016	0.598216	0.257095	9
2861.541859	103.332314	0.598361	0.256435	11
2863.555703	103.860954	0.597402	0.255203	13
2865.568275	104.530701	0.596182	0.254172	15
2867.580285	105.262192	0.594881	0.253472	17
2869.591790	106.055107	0.593604	0.252433	19
2871.601652	106.816017	0.592097	0.251721	21
2873.612293	107.364456	0.590925	0.250852	23
2875.623825	107.727478	0.589760	0.249581	25
2877.637772	107.814507	0.589455	0.248493	27
2879.653787	107.755013	0.589215	0.247899	29
2881.668336	107.764679	0.589586	0.246844	31
2883.684999	107.778557	0.589045	0.245919	33
2885.700216	107.810890	0.588255	0.244559	35
2887.715451	107.856682	0.588082	0.244100	37
2889.730347	107.989838	0.588078	0.243299	39
2891.744065	108.167191	0.588274	0.242403	41
2893.758612	108.338745	0.588139	0.241553	43
2895.771618	108.521881	0.588108	0.240794	45
2897.784420	108.788208	0.587348	0.239584	47
2899.797038	108.951080	0.586946	0.238768	49
2901.809812	109.132286	0.587926	0.238984	51
2903.822110	109.371246	0.587379	0.238438	53
2905.835773	109.559464	0.587028	0.238049	55
2907.850040	109.739838	0.586416	0.237732	57
2909.864452	109.914902	0.584886	0.236769	59
2911.879584	109.977722	0.584405	0.235962	61
2913.895482	109.881172	0.583454	0.234789	63
2915.910700	109.785828	0.582263	0.233483	65
2917.925956	109.591568	0.582068	0.232136	67
2919.941116	109.433784	0.581156	0.231504	69
2921.955789	109.363594	0.581913	0.231145	71
2923.970011	109.302147	0.580596	0.229682	73
2925.983959	109.468040	0.580069	0.228569	75
2927.998051	109.560585	0.580889	0.228196	77
2930.011654	109.698753	0.580575	0.227238	79
2932.025470	109.913956	0.578820	0.225979	81
2947.573673	115.757263	0.046449	0.042571	83
2949.587791	79.825394	0.660183	0.004190	85
2951.598984	79.832405	0.658729	0.005032	87
2953.610932	79.881477	0.657124	0.005784	89
2955.624766	79.898888	0.656452	0.006655	91
2957.638880	79.948044	0.655404	0.007233	93
2959.652637	79.911751	0.654660	0.007825	95
2961.717520	63.651104	0.686682	-0.186495	97
2963.735334	63.084114	0.697647	-0.227664	99
2965.745248	63.058868	0.703167	-0.225672	101
2967.748223	62.848099	0.698803	-0.224345	103
2969.761829	62.862118	0.692272	-0.224037	105
2971.775981	63.505314	0.692699	-0.223351	107
